S(f,omega) = -1/pi * Im[Tr[hermconj(f)*drho(omega)]]  [fm^4/MeV]
Fully self-consistent response with tolerance = 0.1E-06
100Zr, 14 shells, beta0 =   0.485, DD-PC1    
Electromagnetism included in calculation
Pairing included in calculation
Isoscalar excitation
J = 2
K = 1
gamma_smear =   0.050 [MeV]
NGH = 48, NGL = 48

omega[MeV/hbar]                     S(f,omega)

        0.00000                  -0.0000000000
        0.01000                 918.8704768078
        0.02000                1851.8102391773
        0.03000                2815.5973389360
        0.04000                3825.3474387551
        0.05000                4899.4429946117
        0.06000                6060.8105866376
        0.07000                7329.6522055743
        0.08000                8740.1794344987
        0.09000               10324.6342519897
        0.10000               12131.4410257708
        0.11000               14212.6711663420
        0.12000               16645.9546785365
        0.13000               19518.1395526551
        0.14000               22959.1304648152
        0.15000               27122.6561409305
        0.16000               32225.3785144198
        0.17000               38546.4516348148
        0.18000               46448.3565583516
        0.19000               56409.1487307912
        0.20000               68965.6420058339
        0.21000               84677.8475032095
        0.22000              103763.3295016013
        0.23000              125574.2486153922
        0.24000              147585.9782207037
        0.25000              164851.9854314818
        0.26000              171524.7905895230
        0.27000              164879.7604784891
        0.28000              147696.4593461031
        0.29000              125797.1938846965
        0.30000              104119.7811689039
        0.31000               85178.1673218401
        0.32000               69624.4129771674
        0.33000               57212.9795852880
        0.34000               47403.8555215155
        0.35000               39650.9692318150
        0.36000               33486.0740611864
        0.37000               28544.6046330930
        0.38000               24545.4917417045
        0.39000               21279.4221171814
        0.40000               18586.8797593375
        0.41000               16345.3596836522
        0.42000               14464.9100916083
        0.43000               12873.6333942269
        0.44000               11517.7843343378
        0.45000               10354.1765624940
        0.46000                9349.3364491025
        0.47000                8476.3526986494
        0.48000                7713.7455090599
        0.49000                7044.1714119919
        0.50000                6453.4651304197
        0.51000                5930.0273158378
        0.52000                5464.2887916013
        0.53000                5048.2337631950
        0.54000                4675.2644438792
        0.55000                4339.7616210743
        0.56000                4037.0164224219
        0.57000                3762.9722631521
        0.58000                3514.2296427835
        0.59000                3287.8414366144
        0.60000                3081.2816007653
        0.61000                2892.3495956139
        0.62000                2719.1777657739
        0.63000                2560.1008572986
        0.64000                2413.6394914841
        0.65000                2278.5682417571
        0.66000                2153.7694656482
        0.67000                2038.2390952143
        0.68000                1931.1179556322
        0.69000                1831.6276506168
        0.70000                1739.0949487578
        0.71000                1652.8975134785
        0.72000                1572.5035972753
        0.73000                1497.4000473388
        0.74000                1427.1561584927
        0.75000                1361.3755103786
        0.76000                1299.7006040505
        0.77000                1241.8084214676
        0.78000                1187.4065478118
        0.79000                1136.2297929062
        0.80000                1088.0372383458
        0.81000                1042.6096486926
        0.82000                 999.7519862113
        0.83000                 959.2717174973
        0.84000                 921.0074429578
        0.85000                 884.8064220657
        0.86000                 850.5286081493
        0.87000                 818.0454093409
        0.88000                 787.2385948030
        0.89000                 757.9993200525
        0.90000                 730.2272568656
        0.91000                 703.8298151927
        0.92000                 678.7214461869
        0.93000                 654.8230168700
        0.94000                 632.0612481853
        0.95000                 610.3682092316
        0.96000                 589.6808613824
        0.97000                 569.9406467712
        0.98000                 551.0931163001
        0.99000                 533.0875929145
        1.00000                 515.8786801684
        1.01000                 499.4185858566
        1.02000                 483.6682042236
        1.03000                 468.5891548332
        1.04000                 454.1455637149
        1.05000                 440.3038671899
        1.06000                 427.0326381027
        1.07000                 414.3024269981
        1.08000                 402.0856167913
        1.09000                 390.3562896402
        1.10000                 379.0901048729
        1.11000                 368.2641869365
        1.12000                 357.8570224463
        1.13000                 347.8483655035
        1.14000                 338.2191505353
        1.15000                 328.9514119881
        1.16000                 320.0282102672
        1.17000                 311.4335633778
        1.18000                 303.1523837738
        1.19000                 295.1704199702
        1.20000                 287.4742025137
        1.21000                 280.0509939479
        1.22000                 272.8887424400
        1.23000                 265.9760387693
        1.24000                 259.3016659030
        1.25000                 252.8562276780
        1.26000                 246.6295777462
        1.27000                 240.6125066283
        1.28000                 234.7962728589
        1.29000                 229.1725763676
        1.30000                 223.7335325648
        1.31000                 218.4716481686
        1.32000                 213.3797986460
        1.33000                 208.4512071439
        1.34000                 203.6794248020
        1.35000                 199.0583123456
        1.36000                 194.5820228640
        1.37000                 190.2449856903
        1.38000                 186.0418913029
        1.39000                 181.9676771762
        1.40000                 178.0175145149
        1.41000                 174.1867958082
        1.42000                 170.4711231498
        1.43000                 166.8662972689
        1.44000                 163.3683072251
        1.45000                 159.9733207231
        1.46000                 156.6776750037
        1.47000                 153.4778682754
        1.48000                 150.3705516496
        1.49000                 147.3525215468
        1.50000                 144.4207125441
        1.51000                 141.5721906355
        1.52000                 138.8041468777
        1.53000                 136.1138913999
        1.54000                 133.4988477515
        1.55000                 130.9565475703
        1.56000                 128.4846255488
        1.57000                 126.0808146823
        1.58000                 123.7429417821
        1.59000                 121.4689232360
        1.60000                 119.2567610047
        1.61000                 117.1045388378
        1.62000                 115.0104186987
        1.63000                 112.9726373855
        1.64000                 110.9895033372
        1.65000                 109.0593936158
        1.66000                 107.1807510542
        1.67000                 105.3520815604
        1.68000                 103.5719515719
        1.69000                 101.8389856503
        1.70000                 100.1518642110
        1.71000                  98.5093213804
        1.72000                  96.9101429748
        1.73000                  95.3531645955
        1.74000                  93.8372698350
        1.75000                  92.3613885896
        1.76000                  90.9244954736
        1.77000                  89.5256083323
        1.78000                  88.1637868485
        1.79000                  86.8381312406
        1.80000                  85.5477810497
        1.81000                  84.2919140115
        1.82000                  83.0697450122
        1.83000                  81.8805251264
        1.84000                  80.7235407348
        1.85000                  79.5981127206
        1.86000                  78.5035957448
        1.87000                  77.4393775982
        1.88000                  76.4048786308
        1.89000                  75.3995512588
        1.90000                  74.4228795481
        1.91000                  73.4743786847
        1.92000                  72.5534944233
        1.93000                  71.6600235323
        1.94000                  70.7934249948
        1.95000                  69.9534781013
        1.96000                  69.1395624931
        1.97000                  68.3517259455
        1.98000                  67.5895131772
        1.99000                  66.8525100721
        2.00000                  66.1409605255
        2.01000                  65.4542639340
        2.02000                  64.7925594312
        2.03000                  64.1556269868
        2.04000                  63.5434062468
        2.05000                  62.9558855593
        2.06000                  62.3930679998
        2.07000                  61.8549964781
        2.08000                  61.3416118258
        2.09000                  60.8533602801
        2.10000                  60.3902481688
        2.11000                  59.9524993084
        2.12000                  59.5403879932
        2.13000                  59.1543640310
        2.14000                  58.7944449192
        2.15000                  58.4615389768
        2.16000                  58.1557435125
        2.17000                  57.8779704682
        2.18000                  57.6287211318
        2.19000                  57.4086390557
        2.20000                  57.2187215145
        2.21000                  57.0597809876
        2.22000                  56.9329643107
        2.23000                  56.8391667146
        2.24000                  56.7798915524
        2.25000                  56.7563175386
        2.26000                  56.7701053425
        2.27000                  56.8228834795
        2.28000                  56.9165166265
        2.29000                  57.0530775714
        2.30000                  57.2347746396
        2.31000                  57.4643016472
        2.32000                  57.7442762860
        2.33000                  58.0777878568
        2.34000                  58.4682670083
        2.35000                  58.9194506095
        2.36000                  59.4355256329
        2.37000                  60.0211327806
        2.38000                  60.6815741093
        2.39000                  61.4223193518
        2.40000                  62.2501407444
        2.41000                  63.1719102273
        2.42000                  64.1959115716
        2.43000                  65.3309433407
        2.44000                  66.5875528551
        2.45000                  67.9767890705
        2.46000                  69.5120994935
        2.47000                  71.2077453264
        2.48000                  73.0809911130
        2.49000                  75.1504336748
        2.50000                  77.4385374579
        2.51000                  79.9698392634
        2.52000                  82.7739138503
        2.53000                  85.8838319637
        2.54000                  89.3390268951
        2.55000                  93.1844659890
        2.56000                  97.4739095090
        2.57000                 102.2700632463
        2.58000                 107.6467833862
        2.59000                 113.6931191128
        2.60000                 120.5147907147
        2.61000                 128.2385478092
        2.62000                 137.0196993281
        2.63000                 147.0464058479
        2.64000                 158.5497582370
        2.65000                 171.8166384650
        2.66000                 187.2049318845
        2.67000                 205.1636262045
        2.68000                 226.2648341095
        2.69000                 251.2392448857
        2.70000                 281.0318558868
        2.71000                 316.8750890157
        2.72000                 360.3853478175
        2.73000                 413.7025238609
        2.74000                 479.6659174354
        2.75000                 562.0276368220
        2.76000                 665.6906743679
        2.77000                 796.8344140066
        2.78000                 962.6352825272
        2.79000                1169.8232758987
        2.80000                1420.6343743034
        2.81000                1704.1126702764
        2.82000                1983.7187256139
        2.83000                2192.1297933534
        2.84000                2255.9215640980
        2.85000                2148.3222442141
        2.86000                1913.1210740483
        2.87000                1626.7020487779
        2.88000                1349.1339414688
        2.89000                1109.0700906699
        2.90000                 912.8551657175
        2.91000                 756.4700647613
        2.92000                 632.8116821821
        2.93000                 534.8882797945
        2.94000                 456.8587669267
        2.95000                 394.1398939694
        2.96000                 343.2458436637
        2.97000                 301.5358688757
        2.98000                 267.0283634361
        2.99000                 238.2179884664
        3.00000                 213.9557969802
        3.01000                 193.3632393835
        3.02000                 175.7566822328
        3.03000                 160.6027776995
        3.04000                 147.4817481634
        3.05000                 136.0611080449
        3.06000                 126.0760365201
        3.07000                 117.3144899833
        3.08000                 109.6050004202
        3.09000                 102.8049928012
        3.10000                  96.7864993474
        3.11000                  91.4194554573
        3.12000                  86.5583279592
        3.13000                  82.0544246706
        3.14000                  77.8033027335
        3.15000                  73.7808920987
        3.16000                  70.0167628260
        3.17000                  66.5394779328
        3.18000                  63.3515684094
        3.19000                  60.4359736973
        3.20000                  57.7677100960
        3.21000                  55.3210292450
        3.22000                  53.0716081670
        3.23000                  50.9974508006
        3.24000                  49.0792869273
        3.25000                  47.3004455044
        3.26000                  45.6465753698
        3.27000                  44.1053126350
        3.28000                  42.6659355374
        3.29000                  41.3191731697
        3.30000                  40.0568429498
        3.31000                  38.8717662663
        3.32000                  37.7575630497
        3.33000                  36.7086617694
        3.34000                  35.7199927268
        3.35000                  34.7869776436
        3.36000                  33.9058562560
        3.37000                  33.0726937297
        3.38000                  32.2843981699
        3.39000                  31.5379750344
        3.40000                  30.8307808161
        3.41000                  30.1603612229
        3.42000                  29.5246948123
        3.43000                  28.9216925808
        3.44000                  28.3496613332
        3.45000                  27.8069910074
        3.46000                  27.2922535597
        3.47000                  26.8042130627
        3.48000                  26.3417427171
        3.49000                  25.9038208908
        3.50000                  25.4896219653
        3.51000                  25.0984134967
        3.52000                  24.7295905332
        3.53000                  24.3826723793
        3.54000                  24.0573159039
        3.55000                  23.7532850826
        3.56000                  23.4704825201
        3.57000                  23.2090184756
        3.58000                  22.9690806944
        3.59000                  22.7510211277
        3.60000                  22.5554290267
        3.61000                  22.3830829447
        3.62000                  22.2350075993
        3.63000                  22.1125066021
        3.64000                  22.0171853782
        3.65000                  21.9510645862
        3.66000                  21.9166011145
        3.67000                  21.9167795816
        3.68000                  21.9552687792
        3.69000                  22.0365359231
        3.70000                  22.1660170903
        3.71000                  22.3504413764
        3.72000                  22.5979921187
        3.73000                  22.9188572947
        3.74000                  23.3256949740
        3.75000                  23.8343459947
        3.76000                  24.4648154933
        3.77000                  25.2424967616
        3.78000                  26.1999588427
        3.79000                  27.3792830899
        3.80000                  28.8353243436
        3.81000                  30.6401209826
        3.82000                  32.8889334375
        3.83000                  35.7081421711
        3.84000                  39.2651598183
        3.85000                  43.7791676057
        3.86000                  49.5283190657
        3.87000                  56.8412871056
        3.88000                  66.0398109409
        3.89000                  77.2734538938
        3.90000                  90.1512148932
        3.91000                 103.1723311317
        3.92000                 113.3853962809
        3.93000                 117.2949436750
        3.94000                 113.2372930574
        3.95000                 102.8468740875
        3.96000                  89.6142520778
        3.97000                  76.5037889111
        3.98000                  65.0301058860
        3.99000                  55.5923731941
        4.00000                  48.0448667041
        4.01000                  42.0668552111
        4.02000                  37.3305915208
        4.03000                  33.5585029752
        4.04000                  30.5325281218
        4.05000                  28.0863973224
        4.06000                  26.0945512701
        4.07000                  24.4608313088
        4.08000                  23.1076504911
        4.09000                  21.9673176500
        4.10000                  20.9792733401
        4.11000                  20.0968554711
        4.12000                  19.2965880549
        4.13000                  18.5744830008
        4.14000                  17.9323085853
        4.15000                  17.3681186278
        4.16000                  16.8758137102
